#"Step","Potential Energy (kJ/mole)","Temperature (K)"
10,131.2379608154297,266.88676715346617
20,122.51640319824219,989.8077049524629
30,109.65603637695312,2134.6819795372485
40,95.12154388427734,3314.3216406134284
50,81.7426986694336,4323.1717190700365
60,70.72957611083984,5002.592643373935
70,61.06281661987305,5943.247217417547
80,50.67353820800781,6602.529459347463
90,33.33673095703125,7604.015449821872
100,0.019627954810857773,10246.182070352084
110,-45.08144760131836,13639.170620598255
120,-67.36978149414062,15358.850945123348
130,-77.32307434082031,15718.465335640043
140,-79.72356414794922,15195.071866597149
150,-33.94001007080078,11966.72494381013
160,19.025333404541016,7571.136430318691
170,49.447296142578125,4594.763908584015
180,66.365234375,3217.944643829275
190,77.34991455078125,2245.7256727341974
200,85.34249114990234,1682.7104678929045
210,91.4141845703125,1273.2992463860078
220,94.86774444580078,1073.6680308865755
230,95.65078735351562,802.8978627404401
240,94.04451751708984,786.3430405960398
250,89.60547637939453,1183.2358325095042
260,82.66439056396484,1715.8373937472059
270,74.04319763183594,2323.6659919448725
280,64.4452133178711,3094.9445542531853
290,54.1197395324707,3933.6574674214257
300,42.69221878051758,4687.766565003505
310,30.0928897857666,5469.627715700758
320,16.866737365722656,6267.969362517339
330,4.966632843017578,6660.243159014572
340,-5.258241653442383,7543.305463152203
350,-18.659488677978516,8245.265525158391
360,-41.32787322998047,9860.777466740059
370,-58.540687561035156,11084.015611824494
380,-46.19532012939453,9753.889913578918
390,-24.268232345581055,7797.715188532269
400,-20.740169525146484,7225.491050358027
410,-50.60152053833008,9437.461696445787
420,-116.01451873779297,13866.48590995742
430,-139.1213836669922,15533.794220831398
440,-78.0582046508789,10124.910749062896
450,-27.013219833374023,5693.904508215964
460,-0.5894219875335693,3382.022555797849
470,14.915250778198242,2276.5657733767143
480,26.64990234375,923.7466268130073
490,34.83252716064453,290.1742501689077
500,33.43279266357422,301.1491339180691
510,17.286102294921875,1514.571999768504
520,-16.22882843017578,4158.471976611855
530,-73.19965362548828,8403.05508836363
540,-137.4588165283203,13520.804437523677
550,-126.12630462646484,12986.508594662972
560,-68.15968322753906,8597.133492172961
570,-33.48350524902344,5740.683412013175
580,-22.427444458007812,4771.157000583627
590,-23.066314697265625,4816.465289036994
600,-29.83365249633789,5431.7862870173485
610,-37.73331832885742,5804.097887216596
620,-41.15385437011719,5971.911981885891
630,-36.2689208984375,5898.300465431823
640,-24.49171257019043,4850.6347673870305
650,-11.523887634277344,3603.595777384549
660,-0.4323720932006836,2657.743581348849
670,7.827304840087891,2095.8200208840503
680,14.093217849731445,1492.5146048213219
690,18.512327194213867,1032.3625659255272
700,21.758848190307617,853.5235206707363
710,23.870372772216797,548.9904497664539
720,24.552091598510742,374.68575084378296
730,23.636245727539062,431.5497480514073
740,21.363252639770508,426.788600288867
750,17.7412166595459,663.1029207805406
760,12.206233978271484,1271.2313464929334
770,4.160798072814941,1949.5728611569755
780,-5.8026933670043945,2743.933630540081
790,-16.42058563232422,3586.8947501373286
800,-25.504610061645508,4446.905892844386
810,-31.509838104248047,4840.347800822097
820,-35.999046325683594,5227.1181069113
830,-41.445919036865234,5852.406133093514
840,-51.53866958618164,6853.063220160721
850,-69.59461212158203,8060.5301779823985
860,-96.93240356445312,10140.949265321186
870,-126.10307312011719,12563.837594989503
880,-138.4804229736328,13671.69299752845
890,-127.92082977294922,13276.466959080553
900,-102.17459106445312,11086.155467262419
910,-43.131893157958984,6459.3102440039975
920,13.152023315429688,1851.9765199326725
930,-23.707496643066406,4241.34977672686
940,-100.64422607421875,10965.85007843077
950,-114.36264038085938,12315.191042302602
960,-113.64957427978516,11776.321854886746
970,-117.88785552978516,12070.539131127893
980,-115.6956558227539,11414.656922509579
990,-98.73065185546875,9721.649547328223
1000,-76.75225067138672,7648.984224333543
1010,-60.775936126708984,5825.09330702363
1020,-49.66798400878906,4743.493037572244
1030,-39.4551887512207,3751.599998226998
1040,-29.226104736328125,2744.7120656586517
1050,-19.909879684448242,1817.5704523629054
1060,-12.687138557434082,1178.6705170002701
1070,-7.742906093597412,812.9438049936122
1080,-5.05609130859375,381.3354831405521
1090,-4.5124897956848145,363.8637439522642
1100,-5.7428178787231445,455.56003636726984
1110,-8.692071914672852,703.3193412466304
1120,-13.114364624023438,1111.1103777542867
1130,-18.351760864257812,1534.1902470327632
1140,-23.39803123474121,1930.1340057186658
1150,-28.360794067382812,2331.7058961920943
1160,-34.110267639160156,2519.869263639748
1170,-41.607269287109375,3331.171625779212
1180,-51.8181037902832,4119.236705557
1190,-66.03221893310547,4975.2428072257235
1200,-82.73806762695312,5935.612741755656
1210,-99.146728515625,7253.360556944923
1220,-113.11408996582031,8626.978908726838
1230,-124.73676300048828,9467.580559363516
1240,-135.55795288085938,10374.720213467204
1250,-142.1214141845703,10777.047293059592
1260,-128.52297973632812,9921.360212148695
1270,-70.7578125,5634.241203265646
1280,-13.8388671875,849.3008542544602
1290,-39.13314437866211,2434.2326833471607
1300,-98.5684814453125,6852.122980650119
1310,-132.814208984375,10218.18654597782
1320,-145.3625946044922,11021.200026979486
1330,-135.796142578125,10147.170017164597
1340,-114.26599884033203,8012.509448416465
1350,-96.72740936279297,6616.804950056269
1360,-86.3278579711914,5744.413783213994
1370,-78.68781280517578,5218.285238795751
1380,-69.19286346435547,4723.119142386402
1390,-57.35671615600586,4062.186740352484
1400,-45.318241119384766,3008.2617510438718
1410,-34.791664123535156,2399.009029501583
1420,-26.641698837280273,1634.536345316377
1430,-21.10173225402832,972.2118596544068
1440,-17.830833435058594,736.0591141534542
1450,-15.879179954528809,655.0631694675268
1460,-15.092121124267578,602.600580531744
1470,-15.484058380126953,594.3002293283482
1480,-16.9627685546875,707.0341131582361
1490,-19.262775421142578,904.4959569176056
1500,-22.36225128173828,1090.9679484922085
1510,-26.61005973815918,1396.0059316841057
1520,-32.15996170043945,1890.0192100337724
1530,-38.88438415527344,2781.5707391216433
1540,-46.36391830444336,3456.4461528962397
1550,-53.89409255981445,3863.8433073512683
1560,-62.07884979248047,4395.933838933036
1570,-73.62470245361328,5403.707566433947
1580,-91.91590118408203,6772.132272513182
1590,-114.31482696533203,8100.1927472143225
1600,-129.44915771484375,9078.716583967194
1610,-131.70419311523438,9273.319246241452
1620,-128.52255249023438,8492.944921914086
1630,-126.07093811035156,8158.096697036147
1640,-105.53787994384766,6670.25239705783
1650,-54.714088439941406,2358.1090695929684
1660,-43.08622741699219,1334.547026198005
1670,-83.2184066772461,4256.874434046371
1680,-124.2786865234375,7589.112928860386
1690,-143.8796844482422,9221.268394427076
1700,-142.90582275390625,9026.134744582749
1710,-127.30803680419922,7688.883535719407
1720,-109.02877044677734,6071.560853115367
1730,-96.23368072509766,4622.413495779849
1740,-88.51361083984375,3955.99503783761
1750,-82.30766296386719,3612.5901440237153
1760,-74.83958435058594,3049.4083938299427
1770,-66.56134033203125,2409.007562150284
1780,-58.4837646484375,1857.959306148482
1790,-51.58032989501953,1425.9740014727745
1800,-46.01678466796875,858.1779203561131
1810,-41.89448928833008,591.5431696606065
1820,-39.46075439453125,331.93704576211616
1830,-38.697418212890625,276.8228644117633
1840,-39.81084442138672,358.8043362506292
1850,-42.59668731689453,589.1513551150505
1860,-46.69169616699219,803.190120011872
1870,-51.65941619873047,1104.453992819471
1880,-57.27283477783203,1526.332334493026
1890,-63.422210693359375,1924.1235384112135
1900,-70.05648803710938,2524.9358210156056
1910,-77.53778076171875,3230.2735879390316
1920,-86.96847534179688,4129.554564831945
1930,-98.98668670654297,5033.133298837246
1940,-114.06173706054688,6213.893661789434
1950,-130.47727966308594,7656.859724307197
1960,-142.4619903564453,8871.759284636244
1970,-144.4590606689453,8994.681683634684
1980,-132.93511962890625,7418.121473086294
1990,-101.11229705810547,4899.460542623721
2000,-60.1297721862793,1588.809017133171
2010,-60.73316192626953,1529.562304965365
2020,-101.07455444335938,4539.105338803614
2030,-126.8038101196289,6663.711706851344
2040,-135.76385498046875,7153.412546404657
2050,-140.63685607910156,7690.385349641678
2060,-136.99490356445312,7358.395770979124
2070,-122.17476654052734,6236.475926938372
2080,-104.81087493896484,4620.681974677206
2090,-92.78052520751953,3421.1939003537714
2100,-86.63040924072266,2896.2851591783024
2110,-82.07381439208984,2647.858220014046
2120,-75.78475189208984,1986.566269657189
2130,-68.54741668701172,1206.439239944114
2140,-62.156341552734375,633.7751100535407
2150,-58.60081100463867,328.58522495957675
2160,-58.001220703125,213.7160354844516
2170,-60.01881790161133,405.42086215252823
2180,-64.43828582763672,550.3611608389423
2190,-70.20556640625,944.2031064711533
2200,-76.09211730957031,1416.5433135382682
2210,-80.39872741699219,1484.5667669672982
2220,-83.42852783203125,1843.9070993833125
2230,-87.85870361328125,2026.251014349269
2240,-96.01566314697266,2456.8527232454667
2250,-109.13235473632812,3569.1274655921375
2260,-124.76189422607422,4599.324406665698
2270,-135.2369842529297,5187.565650309115
2280,-136.02780151367188,5451.022351695889
2290,-133.5507049560547,5016.775150084296
2300,-133.51034545898438,4851.270973692189
2310,-127.11860656738281,4227.05042828161
2320,-103.3575439453125,2153.901680255536
2330,-83.49853515625,379.1238250919855
2340,-95.38728332519531,1094.1404157023505
2350,-123.71360778808594,3355.041291090846
2360,-142.20013427734375,5013.3775637200215
2370,-145.7183074951172,5343.949442274688
2380,-140.6927032470703,4681.081504904695
2390,-133.68870544433594,4176.989250512934
2400,-126.71892547607422,3523.3034829894946
2410,-119.06946563720703,2928.5750761123804
2420,-109.92000579833984,2120.759919783062
2430,-100.66395568847656,1444.6354923319695
2440,-93.21211242675781,780.1458406206557
2450,-88.36610412597656,403.4807770237653
2460,-86.34125518798828,141.01556722404084
2470,-86.549072265625,119.50799942967703
2480,-88.2653579711914,247.1526531098933
2490,-90.74446105957031,388.83101807450265
2500,-93.459716796875,561.3358343035677
2510,-96.92153930664062,877.4780644677934
2520,-101.991943359375,1326.1000110891655
2530,-109.86881256103516,2008.4724126726883
2540,-120.37307739257812,2832.9740674994696
2550,-130.8995819091797,3400.213162230702
2560,-138.56866455078125,4207.3561727159895
2570,-142.39501953125,4258.578121123163
2580,-143.1658477783203,4049.603007852248
2590,-140.37686157226562,3965.3062841556916
2600,-129.35186767578125,2994.5979971669476
2610,-110.19657897949219,1270.2287862925823
2620,-98.64701843261719,303.97509044650155
2630,-106.42604064941406,941.0944892928392
2640,-124.71355438232422,2384.066286843401
2650,-139.4200897216797,3539.076811331165
2660,-146.12020874023438,3654.971271736525
2670,-144.0965576171875,3441.5638192502056
2680,-137.09959411621094,2821.830363501485
2690,-131.44410705566406,2368.3831896844326
2700,-127.94756317138672,2064.005729336761
2710,-123.4090347290039,1647.7801418582142
2720,-116.51981353759766,1096.5358242017937
2730,-109.48815155029297,586.4699596467021
2740,-105.1661376953125,212.8741135527975
2750,-104.44340515136719,139.4084485411939
2760,-106.31764221191406,234.596487000644
2770,-108.66056823730469,366.94854162768695
2780,-110.57703399658203,644.4152017046785
2790,-111.9997787475586,778.6804250398816
2800,-115.28857421875,1203.7624325020047
2810,-122.27555847167969,1696.9286082737224
2820,-131.83218383789062,2247.359163009531
2830,-139.79383850097656,2892.3679023753434
2840,-142.26449584960938,2666.839802170524
2850,-141.5944366455078,2653.658708653955
2860,-140.77389526367188,3002.2291082762636
2870,-137.40432739257812,2719.0610226925764
2880,-126.0492935180664,1900.7683437751932
2890,-109.5189437866211,600.3002588761063
2900,-104.88728332519531,97.69232655658048
2910,-118.5682144165039,1104.9284711996995
2920,-135.77589416503906,2650.8291199380824
2930,-143.6865692138672,3225.594412911964
2940,-142.93258666992188,3156.883520218106
2950,-140.2391357421875,2873.0247837512234
2960,-137.9145050048828,2552.6574402233946
2970,-134.45184326171875,2152.910360719471
2980,-128.18734741210938,1685.900675471171
2990,-120.42176818847656,1064.6106553537254
3000,-113.99283599853516,599.350269809745
3010,-110.750244140625,325.90658230697187
3020,-110.22216033935547,273.95408630509905
3030,-110.59062957763672,342.08759501354
3040,-110.68943786621094,362.2399649991365
3050,-110.52852630615234,399.64209017015156
3060,-113.06739807128906,647.9495112508787
3070,-119.3071060180664,1088.6412074521438
3080,-128.10546875,1849.800572021667
3090,-134.95774841308594,2270.937947457605
3100,-138.03407287597656,2585.900901944169
3110,-138.8168487548828,2633.8833979581095
3120,-140.30381774902344,2545.581786157427
3130,-142.51121520996094,2505.4425209992582
3140,-139.82827758789062,2230.0875382323725
3150,-128.82872009277344,1480.2602926050545
3160,-116.6634521484375,302.132233240456
3170,-114.70604705810547,77.73651526177824
3180,-124.5530776977539,893.4081503726338
3190,-136.23023986816406,1592.3685608236865
3200,-141.98809814453125,2113.5340843248678
3210,-141.8530731201172,1971.7331808261217
3220,-140.54331970214844,1776.9934895015247
3230,-140.48594665527344,1906.3018092879852
3240,-140.21656799316406,1990.1851518203973
3250,-136.18991088867188,1664.4284068036845
3260,-129.1427001953125,1151.49686105964
3270,-123.13471984863281,611.0988668338057
3280,-120.48207092285156,360.69192671250624
3290,-120.47103881835938,423.94907084947704
3300,-120.03443908691406,414.63801569915563
3310,-118.10911560058594,231.4157804600477
3320,-117.12193298339844,167.3488688086486
3330,-119.6024169921875,312.07291852499225
3340,-125.1295394897461,703.8066661003287
3350,-131.2952117919922,1263.2747149219517
3360,-135.7763214111328,1607.643935384205
3370,-138.0582733154297,1644.213410259924
3380,-140.5055389404297,1829.251108365075
3390,-144.3033905029297,2351.9289982488767
3400,-145.73617553710938,2534.911107664695
3410,-141.0114288330078,2057.903501504526
3420,-131.2486114501953,1109.414490322101
3430,-122.22382354736328,318.6395884300574
3440,-120.02857971191406,154.4798279850555
3450,-125.59376525878906,581.3902499289591
3460,-132.53369140625,1111.5957909303854
3470,-135.6831817626953,1222.0872387023526
3480,-138.62843322753906,1309.0632932554497
3490,-143.6718292236328,1681.6676095287532
3500,-146.02935791015625,1875.4883191976548
3510,-143.09515380859375,1403.3414209694151
3520,-137.9443359375,876.0462179456687
3530,-134.479248046875,733.8972361895819
3540,-133.8904266357422,747.0348963910874
3550,-133.68280029296875,866.2071192087769
3560,-130.46746826171875,539.2110336042226
3570,-126.25328063964844,154.63792372254508
3580,-124.8393325805664,49.42159735255557
3590,-127.46844482421875,290.2999620878595
3600,-130.9717559814453,583.0823522394976
3610,-131.6723175048828,647.3688965303185
3620,-130.51315307617188,539.448425728545
3630,-131.68638610839844,637.9991146441364
3640,-136.804443359375,1056.7983936750677
3650,-143.13320922851562,1552.994272573787
3660,-145.29214477539062,1887.9995608833128
3670,-142.51986694335938,1642.0125340730194
3680,-138.90402221679688,1353.8436528229022
3690,-137.59523010253906,1162.432115732161
3700,-136.50772094726562,1071.8359555421919
3710,-131.67654418945312,630.8088746228472
3720,-126.91876220703125,180.45699359123972
3730,-128.70333862304688,316.56136547794506
3740,-136.12266540527344,958.8449510751534
3750,-143.1438751220703,1407.0968733803409
3760,-144.3851776123047,1507.0326491839699
3770,-142.36083984375,1174.9474866414341
3780,-141.67236328125,940.1408680390385
3790,-142.6449737548828,1079.5128704467957
3800,-142.15106201171875,945.7460596953687
3810,-138.57720947265625,573.2601909661386
3820,-134.8613739013672,221.13942370579198
3830,-133.8763427734375,127.47148436485357
3840,-135.1823272705078,252.26205118075868
3850,-136.24887084960938,408.885051364374
3860,-135.38658142089844,329.30141585550297
3870,-133.94375610351562,190.1518180196873
3880,-134.67784118652344,229.7336762233552
3890,-137.96055603027344,422.9633334120026
3900,-142.30413818359375,850.6006420880024
3910,-143.74945068359375,987.852670504871
3920,-142.0982666015625,831.2731227530953
3930,-141.504150390625,669.1122410814329
3940,-143.47731018066406,734.0119368455598
3950,-145.24298095703125,852.7459266903097
3960,-142.85723876953125,620.5530684027874
3970,-138.3927459716797,234.26754463607526
3980,-136.22201538085938,50.48806015586848
3990,-138.43118286132812,236.608910009777
4000,-141.29513549804688,419.6832387530014
4010,-141.40281677246094,525.6926436919745
4020,-140.04322814941406,324.7318564219978
4030,-141.49462890625,407.1407984889175
4040,-144.9954833984375,665.5920014823658
4050,-146.38916015625,661.8211027164351
4060,-144.7344207763672,441.42256878115666
4070,-142.51126098632812,243.70805859344375
4080,-142.12872314453125,178.99939677184807
4090,-143.12628173828125,221.06244044885477
4100,-143.8566131591797,236.3503938479787
4110,-143.1259002685547,240.47445593366558
4120,-141.1703338623047,113.58737141101966
4130,-140.3694305419922,42.60522889862045
4140,-142.01853942871094,180.25410724759075
4150,-144.10292053222656,403.91881882894506
4160,-144.36231994628906,386.3183472710979
4170,-143.091552734375,353.4871579414597
4180,-142.8245849609375,320.7847009813809
4190,-144.8594970703125,394.7990079056909
4200,-146.37454223632812,535.7469590930328
4210,-145.02613830566406,365.23766664311995
4220,-142.83021545410156,130.5484823956698
4230,-142.84580993652344,88.20535883354094
4240,-144.11123657226562,180.52856680056996
4250,-144.9618377685547,230.51228339290944
4260,-143.91651916503906,109.98350547535672
4270,-142.49197387695312,18.16634485451737
4280,-142.5609588623047,22.27517325933219
4290,-143.8353271484375,123.40956135954272
4300,-144.87986755371094,259.11667708265645
4310,-144.29425048828125,230.25837437412628
4320,-143.34158325195312,154.57627211995694
4330,-144.0494842529297,189.61851731971785
4340,-145.7284393310547,275.8320036783219
4350,-146.38116455078125,309.5240978981784
4360,-145.13063049316406,168.65892235090067
4370,-143.8597412109375,15.847037850718406
4380,-144.5010528564453,59.70181569556256
4390,-145.67251586914062,151.12086706668146
4400,-145.8699188232422,183.2145885287094
4410,-144.77597045898438,82.47820214635436
4420,-143.78433227539062,22.378623692636296
4430,-143.869384765625,34.845053265761834
4440,-144.99095153808594,124.77935482678329
4450,-145.38890075683594,114.83577335068357
4460,-145.18226623535156,77.5630639739696
4470,-145.34568786621094,113.81579776739973
4480,-145.96426391601562,185.7658752196268
4490,-146.372802734375,253.326454151458
4500,-146.139892578125,207.74831328812726
4510,-145.79627990722656,145.48329159181364
4520,-145.61651611328125,84.51398585575484
4530,-145.70144653320312,102.858214700515
4540,-145.5845184326172,172.09502901880785
4550,-144.92649841308594,80.81762339943371
4560,-144.46849060058594,48.30891496407756
4570,-144.63722229003906,55.60450753788252
4580,-145.02316284179688,50.952865447443095
4590,-145.23744201660156,88.22048020335404
4600,-145.0482635498047,51.69828111467374
4610,-144.83761596679688,57.986123283444506
4620,-145.29351806640625,74.95449386377926
4630,-145.9677734375,81.83493219246607
4640,-146.35400390625,156.05589146529638
4650,-146.0587615966797,187.30594181066658
4660,-145.35305786132812,145.9885575397845
4670,-144.85728454589844,108.30655320979523
4680,-145.14089965820312,131.41823835317453
4690,-145.49365234375,110.76762783478593
4700,-145.10475158691406,94.47238283325171
4710,-144.4795379638672,18.845432477831775
