#"Step","Potential Energy (kJ/mole)","Temperature (K)"
10,79.8774185180664,387.53310368500826
20,70.86814880371094,1045.717239768143
30,62.27041244506836,1639.1626051074875
40,54.94391632080078,2077.9060724334154
50,47.4148063659668,2895.211866906765
60,39.32699966430664,3580.7223255036356
70,32.06734085083008,4063.3190652282983
80,25.442001342773438,4410.836054026106
90,19.082447052001953,4732.594945912259
100,11.92737865447998,5170.430289911258
110,2.954284906387329,5457.340369695569
120,-8.852226257324219,6176.023481474926
130,-24.3514404296875,7302.614547963932
140,-41.10451889038086,8668.29744956267
150,-49.0112190246582,9264.824056857102
160,-38.96551513671875,8247.437190911573
170,-19.191246032714844,6552.197588030678
180,-1.4550011157989502,5151.362452861485
190,11.04393482208252,4085.3207921237795
200,20.036298751831055,3428.612432914009
210,27.137800216674805,2682.483442303835
220,33.37474822998047,2162.7860871991716
230,39.22587203979492,1671.0935854554587
240,44.732765197753906,1061.2048870093242
250,49.32440185546875,603.0287963140615
260,52.80210494995117,264.54272543112495
270,54.57474136352539,81.75348516833373
280,54.547645568847656,63.960679727187525
290,53.2329216003418,147.57088176416417
300,51.16191101074219,212.97411340803427
310,48.299171447753906,435.11196809056224
320,44.234188079833984,760.9854019079565
330,39.67630386352539,1077.201193426216
340,34.595333099365234,1509.3390499743741
350,29.147747039794922,1936.0328310542993
360,22.80884552001953,2540.873247762429
370,14.852877616882324,3265.609954295884
380,3.8577866554260254,4124.997125434421
390,-11.270489692687988,5438.33554153948
400,-27.72407341003418,6574.39140029137
410,-38.55952453613281,7041.345417487968
420,-41.84072494506836,7250.615693780267
430,-46.997737884521484,7511.682951101708
440,-69.34014892578125,9240.282398635643
450,-112.16645812988281,12208.23497461629
460,-132.23765563964844,14242.26972841443
470,-99.9027328491211,11784.459178224444
480,-131.14073181152344,13416.25494253399
490,-129.9866943359375,13203.773047874309
500,-57.930545806884766,7963.88982849212
510,-10.541032791137695,3865.9027193958
520,10.614044189453125,1977.2851513780781
530,20.90166664123535,1115.2374602905813
540,26.59781837463379,604.0756692011723
550,30.22949981689453,358.44903185196154
560,32.6626091003418,194.90413383171736
570,34.042091369628906,68.12677960329032
580,34.73567581176758,13.639681076750911
590,34.59458923339844,12.986802553327468
600,34.091697692871094,41.79251262149475
610,32.889347076416016,126.0662006029758
620,30.953718185424805,224.3975340723974
630,28.144317626953125,510.6218186346168
640,24.250843048095703,785.8765147946256
650,18.590578079223633,1191.2639608227123
660,9.541064262390137,1837.6956765265868
670,-6.231508255004883,2698.037768859692
680,-37.200714111328125,4743.189921972046
690,-95.01565551757812,9137.59258361488
700,-144.50723266601562,12371.803615672323
710,-106.97615814208984,9417.536816094549
720,-41.784488677978516,3667.1913266902066
730,-65.40921783447266,5335.385126628335
740,-87.0052719116211,6916.919369356761
750,-104.50271606445312,8458.440517648594
760,-92.54646301269531,7344.620680998797
770,-66.02816009521484,5253.269244737438
780,-48.92226791381836,3814.92240703722
790,-42.15782165527344,3324.3605478930335
800,-39.633968353271484,3078.492809764957
810,-36.34257507324219,2674.1445516800304
820,-30.693288803100586,2199.739579871105
830,-23.760913848876953,1646.444108617383
840,-17.506242752075195,1089.8295827151794
850,-13.472949028015137,740.5842844330958
860,-12.036493301391602,486.7745199508989
870,-12.90407943725586,499.4072678647894
880,-16.03630256652832,661.3987749011243
890,-21.871841430664062,1044.504242097624
900,-31.53472137451172,2173.934990960228
910,-44.854862213134766,2973.0734250003347
920,-58.992218017578125,4014.9407754841304
930,-68.24866485595703,4717.742281502572
940,-67.43052673339844,4557.659622783021
950,-59.343177795410156,3639.1826499740573
960,-51.559661865234375,2707.790383301976
970,-47.94768142700195,2404.5376011197195
980,-50.4302864074707,2483.924677937797
990,-58.045433044433594,2883.074396425387
1000,-67.05867004394531,3482.6924157997364
1010,-72.59540557861328,3925.8639401832447
1020,-72.1426010131836,4044.000416077454
1030,-70.80679321289062,3900.4621799761617
1040,-75.89315032958984,4547.298024324599
1050,-89.9124984741211,6052.819071796987
1060,-99.08692169189453,6765.645415147901
1070,-83.00836944580078,5635.1893953550625
1080,-53.88189697265625,3197.513245381236
1090,-38.162261962890625,1817.2260445265556
1100,-47.55206298828125,2273.9570216571524
1110,-79.14990234375,4912.20302083183
1120,-99.6067886352539,6461.151571867964
1130,-75.6237564086914,5000.588287644273
1140,-39.8231201171875,1863.5722974494183
1150,-21.33367156982422,414.4942575436633
1160,-24.282283782958984,648.6418444103616
1170,-44.629676818847656,2110.7158127403854
1180,-75.60438537597656,4322.381966820078
1190,-103.7043228149414,6547.427875952491
1200,-102.9821548461914,6475.348148525457
1210,-75.49684143066406,3977.8756408403783
1220,-51.191017150878906,1944.1410968924843
1230,-43.84962844848633,1446.5502286157614
1240,-52.49235153198242,2121.6478557945393
1250,-67.87203979492188,3432.583216689757
1260,-78.29679107666016,4123.07933046647
1270,-77.22357940673828,4034.6533831547067
1280,-72.58789825439453,3720.0135786495844
1290,-72.21629333496094,3760.507804104453
1300,-75.61859130859375,3789.684286432666
1310,-74.94656372070312,3603.7909214339193
1320,-64.68817138671875,2893.623798091198
1330,-49.86423873901367,1560.985696677082
1340,-39.875526428222656,604.8762797798984
1350,-38.380149841308594,378.4862423789561
1360,-45.25764465332031,943.0320892407225
1370,-58.92216873168945,1957.4356675913673
1380,-73.66749572753906,3095.4214031136376
1390,-80.44775390625,3623.655545707219
1400,-75.69964599609375,3434.595524998234
1410,-64.31057739257812,2738.273229634674
1420,-52.639705657958984,1812.6978155627544
1430,-43.70072937011719,1035.3729993423242
1440,-37.446067810058594,521.9463290999748
1450,-33.688377380371094,282.83277733271154
1460,-31.748506546020508,162.04849414557995
1470,-32.19694519042969,157.794686501206
1480,-34.96931457519531,402.5862648413453
1490,-40.03910827636719,823.7889049505346
1500,-47.662498474121094,1364.3355512265164
1510,-58.0874137878418,2194.39024714471
1520,-70.16403198242188,3075.55739057717
1530,-79.31331634521484,3583.6782378752914
1540,-79.35252380371094,3464.4384946047826
1550,-69.92603302001953,2587.239076263912
1560,-57.452362060546875,1632.5905633883672
1570,-48.54026412963867,972.6289112395426
1580,-45.96530532836914,762.5526716712391
1590,-50.04597473144531,1108.659989407078
1600,-59.324119567871094,1729.7904991456105
1610,-69.38970184326172,2571.4862411061094
1620,-74.62638092041016,3187.714138939729
1630,-73.95291900634766,3381.531331121847
1640,-71.74099731445312,2957.7922389399137
1650,-71.6888656616211,2954.752824490706
1660,-73.21184539794922,2907.856161353357
1670,-72.45604705810547,3099.1557506038635
1680,-65.9334945678711,2498.6926167962683
1690,-56.71107482910156,1789.9381467325713
1700,-52.14045715332031,1430.5530045936218
1710,-58.56499481201172,1942.5022539198712
1720,-76.80164337158203,3271.3556924893396
1730,-98.21825408935547,4787.242314709558
1740,-105.3514404296875,5145.6506660622
1750,-93.79286193847656,3990.8417088605406
1760,-76.73538970947266,2414.171691550827
1770,-66.02246856689453,1462.2402078140879
1780,-68.171142578125,1751.7928377779233
1790,-82.90078735351562,2762.092732526093
1800,-94.59172821044922,3805.7075092701602
1810,-84.03738403320312,2781.9442044575076
1820,-65.22805786132812,1237.8455030245382
1830,-62.59628677368164,1045.4293411216381
1840,-81.10420989990234,2278.9891688362163
1850,-103.08482360839844,4095.6178523464387
1860,-105.586181640625,4213.528597349683
1870,-92.56503295898438,3092.509229925462
1880,-81.3862075805664,2080.5730920862143
1890,-76.72466278076172,1648.6855123694
1900,-76.6702880859375,1592.8483154340902
1910,-79.19068908691406,1883.9240171751046
1920,-82.21027374267578,2096.0512574065015
1930,-84.63966369628906,2424.6302502971034
1940,-84.46530151367188,2652.1520008370285
1950,-79.77700805664062,2169.4966873107132
1960,-71.85723114013672,1527.4276492905115
1970,-64.54409790039062,739.6505446263315
1980,-61.57716751098633,608.2744014139009
1990,-64.49422454833984,927.8159002186887
2000,-73.97982788085938,1638.4080277253606
2010,-85.85088348388672,2541.268582690033
2020,-94.49610137939453,3400.6851171964995
2030,-95.65242004394531,3528.655874400049
2040,-90.22824096679688,3011.3825264917195
2050,-83.72498321533203,2425.285879246673
2060,-81.86377716064453,2067.5209221069645
2070,-88.27650451660156,2690.9030821894476
2080,-98.80360412597656,3643.84561397508
2090,-97.46672821044922,3542.45176343266
2100,-78.43186950683594,2013.5401935222096
2110,-61.06261444091797,661.0630843146289
2120,-62.257347106933594,693.3123972164908
2130,-81.03929901123047,2141.89374504831
2140,-96.53842163085938,3178.8748475874445
2150,-94.03963470458984,2885.5461190946075
2160,-84.92191314697266,1872.9234595957803
2170,-82.76256561279297,1682.3172740442124
2180,-88.17623901367188,2090.5979294186864
2190,-96.73920440673828,2577.1860990371733
2200,-102.21820068359375,3003.1246909981396
2210,-99.5796127319336,2775.7234526140955
2220,-89.1458511352539,1955.6523017922223
2230,-78.0091781616211,1144.1476076956135
2240,-72.41990661621094,594.7236659166668
2250,-74.40704345703125,698.2624951929789
2260,-80.80618286132812,1085.994069246381
2270,-86.66259765625,1501.9833733736127
2280,-89.7623062133789,1845.9122197840147
2290,-88.99939727783203,1785.586709713184
2300,-86.02299499511719,1407.3227572055134
2310,-83.2603759765625,1201.1068829148032
2320,-81.93344116210938,1087.4743194453285
2330,-84.09092712402344,1162.2747464321592
2340,-91.03070068359375,1346.5912068125208
2350,-101.31201171875,2149.446859711561
2360,-108.10136413574219,2845.9600169666683
2370,-101.9908218383789,2515.819107010063
2380,-87.80731201171875,1186.8208397456467
2390,-81.69540405273438,630.0148784486158
2400,-88.31781005859375,1091.266781934583
2410,-99.53317260742188,2140.393613402326
2420,-100.39393615722656,2316.2090728984344
2430,-90.2169418334961,1323.91351071781
2440,-82.68155670166016,599.7242704153372
2450,-85.51866912841797,717.2924810262792
2460,-95.85997009277344,1569.1320431330514
2470,-106.48382568359375,2522.353221045606
2480,-106.50054931640625,2652.980598375813
2490,-95.9779281616211,1919.3073343338037
2500,-86.07209014892578,1050.6004290286437
2510,-84.36511993408203,774.086128498237
2520,-90.97106170654297,1306.462799983118
2530,-97.45365905761719,1949.6851148656258
2540,-97.43795013427734,1987.986263778196
2550,-91.50345611572266,1514.2202510901714
2560,-84.68885040283203,839.5257584836041
2570,-80.1961441040039,436.80181462153325
2580,-78.544921875,272.99518882112346
2590,-79.17932891845703,283.7510516676949
2600,-81.91069030761719,462.9575404739112
2610,-86.86622619628906,859.197685654861
2620,-93.37782287597656,1473.1647570920509
2630,-98.10984802246094,1907.934534892279
2640,-95.85096740722656,1840.332415206208
2650,-88.2484359741211,1236.357682582296
2660,-83.48688507080078,687.99250432513
2670,-88.6319808959961,989.3428614273363
2680,-101.04532623291016,1986.629125616665
2690,-108.13924407958984,2298.5658179959073
2700,-102.66148376464844,1801.3819076465945
2710,-91.98844909667969,782.9127263112596
2720,-85.62042236328125,282.59546167549314
2730,-87.96537017822266,373.87470250536296
2740,-97.26946258544922,1188.3816098050906
2750,-104.69367980957031,1842.1066049528747
2760,-99.82350158691406,1393.8607235489021
2770,-89.033935546875,552.3878067294165
2780,-85.45857238769531,241.95403704545305
2790,-94.25932312011719,907.4892617031098
2800,-105.72017669677734,1819.1782496913002
2810,-107.16838073730469,1945.4402729891942
2820,-99.62348937988281,1128.1636124824631
2830,-92.20695495605469,404.9948639162261
2840,-89.4996337890625,204.8605713396746
2850,-91.47867584228516,398.3134742384071
2860,-96.0092544555664,825.5222612636733
2870,-100.72550201416016,1178.1956562845214
2880,-101.47554779052734,1424.192776752541
2890,-95.68437194824219,905.5353742620777
2900,-87.8940658569336,367.0555191061624
2910,-85.18733215332031,93.05820977053568
2920,-91.04756164550781,588.9725367923808
2930,-100.24625396728516,1362.7537527134766
2940,-104.18133544921875,2005.7862762438926
2950,-99.20336151123047,1467.2070520863488
2960,-91.55152893066406,859.8541557425747
2970,-87.25616455078125,391.6832792867062
2980,-89.77462005615234,467.4364481556418
2990,-98.24031829833984,1067.727607446374
3000,-106.48329162597656,1783.5462615104404
3010,-104.94376373291016,1708.7172358267192
3020,-93.6022720336914,667.7921129982308
3030,-86.302001953125,20.183420409008463
3040,-91.27611541748047,321.0609001609758
3050,-102.17906951904297,1199.3133469908282
3060,-106.76071166992188,1490.725274588066
3070,-101.15889739990234,987.5588838913594
3080,-93.90604400634766,353.8567234550207
3090,-92.32548522949219,185.7324782119612
3100,-96.51971435546875,495.10411982156893
3110,-103.5683822631836,1120.053740835095
3120,-107.42405700683594,1321.9700228029199
3130,-104.1688232421875,1168.9878699581323
3140,-96.66439056396484,653.6823265037602
3150,-90.96862030029297,171.36585783198007
3160,-91.38357543945312,230.62077109668857
3170,-96.91553497314453,741.0841498918478
3180,-101.21700286865234,1099.201543913825
3190,-100.2071762084961,895.6287550723669
3200,-96.27125549316406,535.9916538257858
3210,-92.93855285644531,174.53180622150725
3220,-93.0092544555664,168.0831632914434
3230,-95.9215316772461,342.27161309928067
3240,-101.39844512939453,752.0771372278776
3250,-106.36651611328125,1046.4449007296669
3260,-106.49542236328125,1258.7092464785096
3270,-100.66227722167969,804.0730091944862
3280,-95.19971466064453,352.74271245061095
3290,-95.59278869628906,346.6654511278276
3300,-101.72219848632812,909.3569707179506
3310,-106.5308609008789,1263.0836236290922
3320,-103.19189453125,962.5448883685859
3330,-96.48680877685547,347.0439632925549
3340,-93.16535186767578,104.12839064803873
3350,-96.06687927246094,316.5171674918416
3360,-102.77210235595703,797.2786011369768
3370,-106.79547119140625,1126.9525264895442
3380,-104.7642822265625,1015.3461118743676
3390,-100.09558868408203,723.8773692188688
3400,-98.41006469726562,547.1461014518806
3410,-101.51505279541016,781.1349426107055
3420,-105.16752624511719,956.2810855456305
3430,-105.64899444580078,868.5493830709505
3440,-102.4974594116211,696.4092384607912
3450,-98.02922058105469,389.62470838031805
3460,-94.66580200195312,143.87487296819899
3470,-94.29995727539062,133.15025649199345
3480,-97.04496765136719,344.41204204048506
3490,-101.0336685180664,758.1897645862541
3500,-103.11197662353516,828.8127936823684
3510,-101.33240509033203,693.3128560191149
3520,-97.48764038085938,395.87681173636366
3530,-96.10043334960938,288.94924716306326
3540,-100.2698974609375,642.2702229707869
3550,-105.98869323730469,1140.7664617586956
3560,-107.78369903564453,1102.4280733664846
3570,-104.31657409667969,844.0373176187364
3580,-99.3606185913086,548.7965291907472
3590,-96.8071060180664,266.10643947407226
3600,-99.2748031616211,412.1209862708237
3610,-104.34668731689453,706.4509750232442
3620,-106.65095520019531,959.0521769269536
3630,-102.63352966308594,857.5704656820539
3640,-96.25578308105469,409.389428382261
3650,-95.53626251220703,436.23764032832975
3660,-101.09750366210938,888.7178111483839
3670,-106.9494857788086,1381.767451053628
3680,-106.81340789794922,1410.7965048053572
3690,-101.80917358398438,930.8894954633778
3700,-96.77354431152344,529.1971693011725
3710,-94.96976470947266,389.7725192923216
3720,-96.2868423461914,416.5002573160615
3730,-98.7750473022461,600.4614132977554
3740,-101.01844024658203,783.1479391231184
3750,-100.29399871826172,855.9844614782949
3760,-96.47000122070312,572.4707445845944
3770,-93.15327453613281,215.13729131267425
3780,-94.21334075927734,349.4691939625525
3790,-98.98894500732422,693.4046930110012
3800,-104.73146057128906,1059.7812224673262
3810,-106.77523803710938,1271.2246173877827
3820,-104.78022003173828,1073.487874389586
3830,-101.91442108154297,821.0263014177538
3840,-100.68038940429688,671.7665671949704
3850,-101.955810546875,685.5584799381741
3860,-103.31282806396484,623.5539816651383
3870,-101.91775512695312,587.6812750409332
3880,-97.466064453125,400.7906643055627
3890,-93.504638671875,81.30459459277606
3900,-95.68073272705078,261.5976140379073
3910,-101.73384094238281,716.9890595576655
3920,-105.08850860595703,1063.4566902874833
3930,-103.49177551269531,842.8260786916094
3940,-101.26660919189453,693.3612596959375
3950,-101.39717864990234,569.1175856077351
3960,-103.24343872070312,624.3347107968282
3970,-105.12157440185547,678.3276741182207
3980,-105.42178344726562,646.0411982038218
3990,-103.58364868164062,465.68569557634646
4000,-100.48038482666016,300.6911533155251
4010,-98.22726440429688,75.99257781312562
4020,-98.3265151977539,62.411828977577386
4030,-100.13766479492188,165.0452590675396
4040,-102.23690795898438,322.2995525448816
4050,-103.48479461669922,444.95083742614213
4060,-103.5953369140625,437.18445600987565
4070,-103.095458984375,454.6246525177697
4080,-103.306640625,364.0332715217996
4090,-104.65633392333984,398.49852463005146
4100,-106.94286346435547,670.3672956591436
4110,-107.96124267578125,718.2126861556383
4120,-105.99728393554688,611.6187666738017
4130,-102.30713653564453,331.34327869967035
4140,-99.95555877685547,163.6264501866445
4150,-100.7114028930664,172.12672463340976
4160,-103.19779205322266,355.0367638037217
4170,-104.20890808105469,405.9857246496676
4180,-103.1419906616211,394.086449197204
4190,-102.26583862304688,316.5793543641576
4200,-103.37911224365234,413.5665204045617
4210,-106.15056610107422,643.8845964701245
4220,-108.03662872314453,844.8811321112141
4230,-107.25125122070312,785.3528680665343
4240,-104.37737274169922,564.7721512560108
4250,-102.11483764648438,375.5980798614316
4260,-101.80531311035156,432.6592474966819
4270,-103.28761291503906,513.0137478808286
4280,-104.50181579589844,624.7214814087858
4290,-103.96511840820312,567.9532974824551
4300,-102.45783996582031,365.7131390957005
4310,-101.64071655273438,253.49118341021833
4320,-102.24771118164062,269.071260263342
4330,-103.8198013305664,469.0696325625597
4340,-105.7376480102539,586.9971620951287
4350,-106.53360748291016,686.1348125009113
4360,-105.7048568725586,555.9450564068125
4370,-104.67316436767578,511.02246802594766
4380,-105.19285583496094,500.22925099907934
4390,-106.92526245117188,604.8978435032221
4400,-107.92696380615234,602.5662085685026
4410,-106.9034652709961,653.6142707812133
4420,-104.72359466552734,432.6031588759087
4430,-103.50835418701172,290.7685333843054
4440,-104.25038146972656,383.0564517828452
4450,-105.77134704589844,543.4547667076465
4460,-106.01094055175781,684.4967341993383
4470,-104.79536437988281,475.38940930563234
4480,-104.35072326660156,450.5271627507177
4490,-105.9325180053711,604.3463245157283
4500,-107.72114562988281,784.4215752070975
4510,-108.03327941894531,860.9844160065813
4520,-106.72215270996094,692.9494843409767
4530,-105.07124328613281,499.9642924837703
4540,-104.52230072021484,320.35157218763214
4550,-105.24027252197266,402.7352609934607
4560,-106.26148986816406,486.4070190491455
4570,-106.29102325439453,511.9572783721679
4580,-104.91573333740234,460.52420429089113
4590,-103.4417724609375,340.6340700674356
4600,-103.57839965820312,235.51715093262695
4610,-105.04169464111328,321.46514350619407
4620,-106.8576431274414,479.99984040621774
4630,-107.53654479980469,466.55363544013164
4640,-106.55078125,438.3757370228626
4650,-105.28158569335938,345.25753880925043
4660,-104.88764953613281,235.84959166720301
4670,-105.99371337890625,414.0527364852522
4680,-107.35578155517578,533.4029364874676
4690,-107.28759002685547,504.68036288851135
4700,-105.50640869140625,303.2609641623829
4710,-103.6164321899414,148.74407830705854
4720,-103.91098022460938,168.7948617450105
