#"Step","Potential Energy (kJ/mole)","Temperature (K)"
10,104.03292846679688,3507.825623537623
20,58.47234344482422,7031.4420099166255
30,48.01289749145508,7826.6748101535795
40,40.647010803222656,7897.8081807016915
50,31.132526397705078,8505.831158277688
60,12.958518028259277,9686.752408016662
70,-24.845943450927734,12394.52841550309
80,-71.72274780273438,15697.480315359153
90,-75.15348815917969,15660.440873662339
100,-49.753807067871094,13653.14636025944
110,-30.484268188476562,11994.96271596982
120,-6.372966289520264,9636.845693798035
130,19.402183532714844,7419.8049728476335
140,38.87131118774414,5824.96973618359
150,53.10108947753906,4686.167179056549
160,65.5008773803711,3578.33165796464
170,77.29096984863281,2471.0567936791513
180,88.39122772216797,1557.0985679130936
190,97.71205139160156,752.5346399110216
200,102.92601013183594,287.29270205587784
210,102.99165344238281,292.2381164222468
220,98.19035339355469,654.2546063099862
230,89.98143005371094,1181.2150363524847
240,79.50145721435547,2010.839681277865
250,68.01526641845703,2995.0983978954273
260,56.101951599121094,4011.966816875934
270,43.4332160949707,4750.821950686611
280,28.417434692382812,5879.088870226557
290,9.694290161132812,6880.749205698053
300,-10.266708374023438,8588.32203484653
310,-28.06047821044922,10019.721989083891
320,-50.55493927001953,11576.313274229147
330,-76.50255584716797,13998.04603302204
340,-66.63459014892578,12699.301822515197
350,-26.700916290283203,9295.534469291259
360,4.215980529785156,6391.87665781511
370,20.895292282104492,5282.733549245052
380,29.598636627197266,4485.248639861523
390,34.69426345825195,3803.7315993031802
400,37.7824821472168,3853.169417240169
410,39.06096267700195,3632.294493247062
420,43.36943817138672,3052.3860228591298
430,63.946815490722656,1364.175734979187
440,64.31745910644531,1109.6901542319679
450,21.125349044799805,4506.669216766716
460,-3.524594306945801,6473.133661194043
470,-19.161640167236328,7476.112289538245
480,-46.91640853881836,9982.391972391933
490,-93.33953857421875,13433.147443409589
500,-130.59033203125,16439.223458753146
510,-98.89696502685547,14012.290936889252
520,-39.35067367553711,8696.310714305057
530,4.422702789306641,4740.289371783676
540,-0.04241752624511719,4734.969096556795
550,-27.965999603271484,7090.212179092395
560,-46.6414909362793,8749.501843574059
570,-50.37820816040039,9016.287005063106
580,-39.21528244018555,7805.33008861554
590,-23.928979873657227,6598.91164772371
600,-10.48624038696289,5045.645152259736
610,-0.23456549644470215,4261.413521338938
620,6.877561569213867,3655.6224655940637
630,11.575664520263672,3151.2121080497245
640,14.534744262695312,3121.1877584725225
650,16.083494186401367,2928.368920800036
660,16.795734405517578,2777.455279585155
670,16.757232666015625,2570.7417573817083
680,15.745594024658203,2220.2772675936835
690,13.821563720703125,2349.1394782954935
700,10.35278606414795,2432.4194953774618
710,4.325435638427734,2958.0727202773314
720,-5.248704433441162,3562.933324300913
730,-18.729259490966797,4243.436105191996
740,-36.02684783935547,5450.803961646907
750,-55.51190948486328,6977.399954714474
760,-71.6816177368164,8078.413692525647
770,-78.84600067138672,8715.40118561761
780,-74.5447769165039,8314.84814283768
790,-60.14126968383789,6906.753526684541
800,-40.69369125366211,5086.643754732491
810,-23.565080642700195,3205.547491062763
820,-19.04462432861328,2937.5517023834223
830,-35.448097229003906,4414.469159070656
840,-68.4663314819336,7058.70650877679
850,-66.55549621582031,7025.695965854754
860,-23.582651138305664,3514.271494535167
870,-1.3441810607910156,1312.385941857819
880,-16.513113021850586,2260.7473294436927
890,-61.644676208496094,5730.382375501108
900,-103.59722137451172,9026.831512834262
910,-100.79937744140625,8797.087016515694
920,-77.38359069824219,6215.908111176823
930,-65.66502380371094,5254.938674551646
940,-65.02855682373047,4743.435228441631
950,-69.02037811279297,5351.259697415682
960,-71.45228576660156,5527.685823204218
970,-69.244873046875,5194.699113505694
980,-65.19978332519531,4980.432476638997
990,-62.972564697265625,4877.725227118525
1000,-62.933528900146484,4429.790719761982
1010,-64.38414764404297,4395.120840683465
1020,-64.43863677978516,4086.590757786767
1030,-60.62318420410156,3877.447111018668
1040,-52.849124908447266,3157.984340647078
1050,-43.702213287353516,2394.0525847554645
1060,-35.44091796875,1635.108930991019
1070,-29.174846649169922,1122.253546482544
1080,-25.56147575378418,715.6327625342784
1090,-24.277097702026367,638.5616066610522
1100,-25.27302360534668,837.0408834724981
1110,-27.980937957763672,1168.8408237171686
1120,-31.67936897277832,1430.0438866152879
1130,-35.45941162109375,1495.237904262654
1140,-39.29115295410156,1940.4004790997315
1150,-44.10557556152344,2207.8180235387354
1160,-52.383872985839844,3022.872167668134
1170,-66.287109375,3940.2504611270383
1180,-80.72330474853516,4634.3506224487855
1190,-84.4212646484375,4719.943310623685
1200,-76.75241088867188,4038.367543329481
1210,-69.60055541992188,3186.674186325529
1220,-76.36105346679688,3454.2643934853318
1230,-100.6958999633789,5232.893514341102
1240,-130.88604736328125,7293.486210958583
1250,-138.7624969482422,7758.423943557297
1260,-116.80939483642578,5930.816113256867
1270,-91.30296325683594,3799.7751913429815
1280,-74.65258026123047,1989.4756900296215
1290,-58.79484558105469,600.021650982736
1300,-59.840457916259766,554.7965205049533
1310,-86.62751770019531,2770.8335342484443
1320,-111.1294937133789,4734.264681594882
1330,-130.94515991210938,6144.30982063648
1340,-139.3782196044922,6615.741751442458
1350,-126.6973648071289,5669.341439205391
1360,-104.67974090576172,3886.1395855313003
1370,-88.84175872802734,2856.6963042346197
1380,-84.08805084228516,2377.9458598404176
1390,-87.15095520019531,2300.2100136657996
1400,-89.4835205078125,2411.3898183078422
1410,-85.16650390625,2114.381186902817
1420,-76.11006927490234,1354.790621438656
1430,-67.65432739257812,681.0580850002236
1440,-62.34572219848633,245.28077663788528
1450,-61.562294006347656,143.09084619264976
1460,-65.22441864013672,448.1190989455648
1470,-73.62645721435547,1084.4982197582208
1480,-84.88423156738281,1976.3577583409444
1490,-93.6866455078125,2492.969359931385
1500,-94.54585266113281,2750.417123352787
1510,-89.88107299804688,2542.8844855314496
1520,-88.84420013427734,2298.476351484245
1530,-99.55912780761719,3218.626730396824
1540,-120.97134399414062,4888.999536930118
1550,-139.21775817871094,6324.280961365774
1560,-134.51046752929688,5757.721506254763
1570,-112.97296142578125,4106.974440761918
1580,-91.60311889648438,2378.7686458792996
1590,-72.91548156738281,957.6288947204753
1600,-61.94801330566406,31.103577607686375
1610,-76.22144317626953,1146.770429362309
1620,-100.03556823730469,2833.0698043136595
1630,-122.13245391845703,4488.910496537171
1640,-138.68492126464844,5799.049223143071
1650,-136.00254821777344,5589.4749136453265
1660,-117.17108154296875,4091.686525596347
1670,-101.2277603149414,2483.894855767242
1680,-96.72025299072266,2051.2103358926934
1690,-98.62733459472656,2202.891400963171
1700,-99.70999145507812,2305.404271105312
1710,-94.63407897949219,1700.485857951118
1720,-85.8476333618164,929.8562719543283
1730,-79.05318450927734,224.03448737945124
1740,-77.19927215576172,25.77130660386784
1750,-80.20446014404297,261.60466812824995
1760,-87.91314697265625,921.7658229513723
1770,-97.51998901367188,1788.3395254566547
1780,-103.71994018554688,2162.083201579339
1790,-105.10051727294922,2041.061927720181
1800,-107.53275299072266,2277.1998386029604
1810,-116.63909912109375,2844.469214307371
1820,-131.21923828125,3959.065344996827
1830,-140.43997192382812,4877.518765937765
1840,-134.1640167236328,4406.4434777047745
1850,-117.43553161621094,2968.9567419901828
1860,-98.17683410644531,1550.273420079782
1870,-83.62926483154297,241.1878940138484
1880,-84.39260864257812,172.19455095464474
1890,-98.34728240966797,1269.2636185060799
1900,-116.04853057861328,2690.887177031819
1910,-133.16270446777344,3907.0518091291983
1920,-140.54754638671875,4686.68256733741
1930,-131.25697326660156,4152.6161257886615
1940,-115.63166046142578,2801.018770612431
1950,-106.98008728027344,1902.106059292312
1960,-106.65607452392578,1668.0685468218003
1970,-107.7558364868164,1650.6317531000338
1980,-104.71574401855469,1228.714413203446
1990,-97.74930572509766,783.7512645735623
2000,-91.29175567626953,261.76935915345825
2010,-88.59640502929688,52.374126054859765
2020,-91.15147399902344,203.03360017448196
2030,-98.73728942871094,755.819360829814
2040,-108.26434326171875,1607.7850936581617
2050,-113.48343658447266,2162.2249715901276
2060,-112.19293212890625,2008.69386140583
2070,-111.14107513427734,1803.598994859544
2080,-117.66777038574219,2188.414801770883
2090,-130.53907775878906,3036.7894864618734
2100,-140.080322265625,3747.704458081571
2110,-134.76849365234375,3038.617661983954
2120,-119.72926330566406,1906.5145407712723
2130,-107.9556655883789,882.810803832624
2140,-102.43608856201172,440.51612773051494
2150,-100.94384765625,317.2590131011549
2160,-111.7830581665039,1176.0262845444586
2170,-129.11563110351562,2492.7113599225386
2180,-138.9891815185547,3419.5743270913626
2190,-139.7264404296875,3426.7509177345905
2200,-133.75790405273438,2734.650829984683
2210,-124.2826919555664,2132.145871566472
2220,-115.46943664550781,1652.996421823675
2230,-109.52091979980469,1174.5247000234995
2240,-106.58287811279297,864.2510142217291
2250,-104.34103393554688,639.0792889550327
2260,-101.86626434326172,479.5300647528841
2270,-99.4115219116211,210.9595493199897
2280,-98.6236343383789,202.5075256158391
2290,-101.62327575683594,440.52912713819245
2300,-108.73828887939453,989.1091779575572
2310,-116.5378189086914,1523.4695590540248
2320,-121.7862319946289,1997.2231840712036
2330,-125.62722778320312,2425.2259290371494
2340,-130.12454223632812,2868.6077379566173
2350,-135.10604858398438,3468.3774680652737
2360,-135.52389526367188,3522.346420716014
2370,-127.09913635253906,3106.307260036984
2380,-111.6358413696289,1983.567076904678
2390,-97.63690185546875,770.145090425939
2400,-94.87285614013672,497.65666821970206
2410,-102.92604064941406,922.4281810060929
2420,-117.67402648925781,2142.051573150935
2430,-131.44509887695312,3265.7965340296087
2440,-137.37098693847656,3771.8870267827124
2450,-135.24720764160156,3506.199932906896
2460,-129.0533905029297,3197.765586824388
2470,-123.14131927490234,2522.40720682102
2480,-117.47967529296875,2167.984167993884
2490,-111.2815170288086,1388.3846083640994
2500,-105.37498474121094,866.6705098589277
2510,-100.27548217773438,498.2396534204859
2520,-97.62992858886719,218.95236894793257
2530,-98.20994567871094,243.69171374996688
2540,-101.23762512207031,405.4495373165227
2550,-105.113037109375,643.3392330845014
2560,-108.98653411865234,921.4637778906304
2570,-113.03084564208984,1190.6854107139595
2580,-118.56243133544922,1705.0422268091859
2590,-125.92143249511719,2166.204013813106
2600,-134.16070556640625,3000.6468509605997
2610,-140.03916931152344,3409.168071844212
2620,-138.24713134765625,3153.809542637897
2630,-127.19482421875,2506.5176484812914
2640,-111.2054214477539,1333.6826420545553
2650,-99.43374633789062,390.555542437131
2660,-97.53417205810547,203.7494278516643
2670,-104.2595443725586,730.7846427218605
2680,-118.0357437133789,1681.1038940381736
2690,-132.89706420898438,2584.1941561832177
2700,-139.63783264160156,2898.8431367408184
2710,-135.2725067138672,2661.807960859875
2720,-127.20201873779297,1802.2207517773131
2730,-124.0055160522461,1432.495727837472
2740,-124.36890411376953,1450.919558937481
2750,-122.71935272216797,1389.6989249473986
2760,-116.66246795654297,806.9066506668692
2770,-110.30108642578125,311.2122239193098
2780,-107.8392105102539,139.19974113925406
2790,-109.70828247070312,327.3218737010837
2800,-113.63726043701172,645.7461116495425
2810,-116.08058166503906,823.0298160092725
2820,-116.68384552001953,948.0474136569101
2830,-118.32070922851562,1055.1357694331157
2840,-124.33871459960938,1430.894659614228
2850,-133.05711364746094,1966.5127716370457
2860,-139.09164428710938,2345.9573762302493
2870,-138.7420654296875,2238.8291046257636
2880,-134.09715270996094,1717.713590610589
2890,-128.60850524902344,984.9905832698054
2900,-121.84213256835938,492.86351897414386
2910,-117.92327880859375,152.71378198496313
2920,-122.20800018310547,542.2379839154805
2930,-131.14285278320312,1251.9760121041886
2940,-136.81137084960938,1851.0526443823223
2950,-139.25570678710938,2062.458035152098
2960,-138.50311279296875,1879.6397182730166
2970,-134.0513153076172,1810.5174325597177
2980,-127.14656829833984,1429.6500810297634
2990,-121.6624755859375,970.7460617381128
3000,-119.51023864746094,797.7651613196352
3010,-118.45976257324219,703.3141414835594
3020,-117.63243103027344,561.8142889732037
3030,-116.7149429321289,612.5039498695354
3040,-116.56151580810547,622.115558972071
3050,-118.72469329833984,709.0072703094726
3060,-123.75952911376953,1037.1905459369507
3070,-130.22012329101562,1629.961165550729
3080,-134.96176147460938,1969.5430100337749
3090,-135.37583923339844,2166.6930974101965
3100,-132.04168701171875,1960.0002213248263
3110,-129.05763244628906,1789.4642036220705
3120,-131.1977081298828,1972.1870895553784
3130,-126.78070831298828,1668.1546487808878
3140,-114.87362670898438,727.14710258528
3150,-111.20830535888672,371.34004740956243
3160,-120.74600982666016,1082.516039488714
3170,-132.94467163085938,2062.0103967253685
3180,-135.08261108398438,2192.5504486228238
3190,-131.4113006591797,1899.0831617375652
3200,-130.53465270996094,1817.530995337249
3210,-132.04136657714844,2050.993628119999
3220,-131.9889373779297,2106.9517960138137
3230,-127.10717010498047,1821.9156190797655
3240,-119.15061950683594,1286.4444768308078
3250,-113.36940002441406,813.5403248718015
3260,-113.12096405029297,739.4469127284186
3270,-117.39511108398438,1161.6929847050392
3280,-121.11297607421875,1326.176019390527
3290,-121.58271026611328,1291.1264046736194
3300,-120.75798034667969,1194.7569016656564
3310,-123.8564224243164,1515.5969648303226
3320,-131.52285766601562,2151.5105539139163
3330,-138.6100311279297,2679.9952027401537
3340,-139.4689178466797,2612.892566177314
3350,-134.73492431640625,2281.246477745862
3360,-128.89328002929688,1561.3346925396706
3370,-122.45208740234375,1080.7962943200846
3380,-117.49136352539062,624.8044099830579
3390,-119.67919158935547,833.8106835988473
3400,-128.04562377929688,1463.8452523267395
3410,-134.8919219970703,1961.3977341172615
3420,-139.4976806640625,2294.3489630795348
3430,-139.92669677734375,2377.5607715047477
3440,-135.6386260986328,2005.4568559599245
3450,-129.44354248046875,1447.0191248973993
3460,-125.01625061035156,919.7063344397363
3470,-123.22377014160156,700.6588977647741
3480,-123.22500610351562,705.7119969303303
3490,-122.55779266357422,590.3205753685376
3500,-121.81830596923828,474.40229546028615
3510,-121.94001770019531,483.6608559437217
3520,-124.08255767822266,688.2657212876694
3530,-128.7569122314453,1061.5177139317282
3540,-134.63702392578125,1424.4240132749926
3550,-138.3471221923828,1670.1735332603075
3560,-137.8850555419922,1715.726975249051
3570,-134.3651123046875,1469.737042688806
3580,-131.7191925048828,1309.509708208516
3590,-130.32839965820312,1220.0168918619506
3600,-126.49272155761719,1001.0442400146859
3610,-122.38959503173828,471.7583306393386
3620,-125.27436828613281,691.6558138757534
3630,-133.0026397705078,1161.1081642937595
3640,-138.1318817138672,1468.5534848533218
3650,-137.85791015625,1362.235458682664
3660,-136.196533203125,1320.3556493035821
3670,-135.61830139160156,1252.7354069138664
3680,-135.49642944335938,1095.2653997361822
3690,-134.2052459716797,938.3680547002434
3700,-131.41717529296875,529.0658370500777
3710,-128.6057586669922,268.4923851693974
3720,-127.9500732421875,230.43682947805198
3730,-130.31591796875,389.7923625058058
3740,-132.48812866210938,545.1149440022713
3750,-133.2412872314453,548.5150920145293
3760,-134.04798889160156,569.8327824313096
3770,-136.2088623046875,814.7280119309011
3780,-139.02609252929688,991.1344092066078
3790,-140.1592559814453,1041.4326349976388
3800,-137.9619140625,757.0719684601971
3810,-134.10166931152344,435.33743134666287
3820,-131.24945068359375,163.62721485768432
3830,-130.86367797851562,139.72742150708058
3840,-132.3617401123047,267.66424643323666
3850,-135.18008422851562,544.0094590799558
3860,-138.61131286621094,790.7716329233482
3870,-140.33236694335938,750.4335532948178
3880,-139.97317504882812,735.2367104500923
3890,-138.34109497070312,475.01770271315985
3900,-136.33241271972656,363.1610495001913
3910,-134.49935913085938,182.64249989024344
3920,-133.18734741210938,91.81149010715944
3930,-132.70709228515625,68.18949218694627
3940,-133.03831481933594,74.67489189805704
3950,-133.88626098632812,125.03789966374556
3960,-135.2841796875,233.87295526273516
3970,-136.81297302246094,410.6868839691315
3980,-138.4707489013672,605.0203820373587
3990,-139.98800659179688,857.2772908053743
4000,-140.42770385742188,925.1923138809534
4010,-138.8837890625,842.3460946798938
4020,-135.72450256347656,526.3571810591586
4030,-132.52964782714844,280.0612653823165
4040,-130.98704528808594,140.56342679656382
4050,-131.77357482910156,172.9445785440845
4060,-134.54302978515625,373.28988209408345
4070,-137.88784790039062,618.1729915576932
4080,-140.1763916015625,819.1003244696761
4090,-140.46371459960938,706.7201392292725
4100,-139.1099853515625,633.6641180521061
4110,-137.0991668701172,325.28857517256273
4120,-135.66481018066406,213.42817507149894
4130,-134.8465576171875,111.29328182435684
4140,-134.376708984375,63.600648705654756
4150,-134.28826904296875,49.85735470300377
4160,-134.859130859375,55.52419318272796
4170,-136.14451599121094,130.00990546552538
4180,-137.75706481933594,304.5512700750308
4190,-138.92156982421875,395.76845785001655
4200,-139.65440368652344,445.40447852053484
4210,-139.88819885253906,421.23903845068617
4220,-139.71316528320312,349.81807512448535
4230,-138.78628540039062,229.7044084393048
4240,-137.28866577148438,114.55971754690866
4250,-136.20497131347656,6.074558688576782
4260,-136.66473388671875,53.173651756548004
4270,-138.1839141845703,157.9273091346805
4280,-139.5802001953125,273.1027589196547
4290,-139.89657592773438,250.53876940857012
4300,-139.72283935546875,192.1542620717502
4310,-139.66590881347656,209.9315446907874
4320,-139.41465759277344,206.28297417445708
4330,-138.91265869140625,119.59723654002788
4340,-138.3020477294922,58.30947877022832
4350,-137.81784057617188,16.169184201420453
4360,-137.80992126464844,16.99285319639355
4370,-138.2391815185547,30.503614320220755
4380,-138.6433868408203,20.861521128762053
4390,-138.99996948242188,34.92454082035455
4400,-139.3795166015625,47.973573258744054
4410,-139.78492736816406,90.24412475999686
4420,-140.29116821289062,122.47563038501832
4430,-140.54713439941406,164.37611455734032
4440,-140.500244140625,145.49736153894693
4450,-140.11468505859375,89.49890503972017
4460,-139.3905792236328,98.75212238426468
4470,-138.73712158203125,69.4034743714288
4480,-138.411865234375,20.947962410623433
4490,-138.381103515625,10.79032322490188
4500,-138.85519409179688,39.97271741609172
4510,-139.589111328125,100.88584133709433
4520,-140.27210998535156,202.82884038678534
4530,-140.58364868164062,217.369404311557
4540,-140.37184143066406,218.97108427163298
4550,-139.77297973632812,106.56972720181324
4560,-139.2112579345703,77.93429264704221
4570,-138.82412719726562,42.128026377812226
4580,-138.5117950439453,23.84293050040269
4590,-138.37380981445312,38.055211589377485
4600,-138.34304809570312,10.17740354250475
4610,-138.58380126953125,21.32270857047936
4620,-139.2532958984375,98.13585487647119
4630,-139.93276977539062,105.90994035346412
4640,-140.34486389160156,154.65461266798988
4650,-140.40792846679688,213.38147278773994
4660,-140.1501922607422,202.15036688989983
4670,-139.68263244628906,135.84071331216404
4680,-138.90380859375,102.91811711809949
4690,-138.19094848632812,23.88453338416469
